,Tiempo[ms],AnguloDeg,AnguloRad
0,9,-30.710388183594,-0.5359973883692761
1,42,-30.017673492431598,-0.5239072362315564
2,75,-28.762546539306598,-0.5020011383690006
3,108,-26.50752258301,-0.46264354562027643
4,142,-24.611228942871094,-0.4295469780152239
5,175,-21.586334228515597,-0.3767526057235471
6,209,-17.438781738280994,-0.3043641588696633
7,242,-13.739822387695298,-0.23980513930451175
8,275,-9.054748535156193,-0.15803517487860907
9,308,-3.368286132809999,-0.058787683166801497
10,342,1.3091125488280966,0.022848324256225405
11,375,6.696548461914105,0.11687681917976334
12,409,12.506591796899997,0.21828120505881898
13,442,17.75996398926,0.3099698466482139
14,475,21.767578125,0.37991590846634393
15,508,25.973320007324006,0.45331995180192175
16,542,29.630928039550994,0.5171572547116736
17,575,32.71321105957,0.5709532418893195
18,608,35.211273193359006,0.6145526510433328
19,642,37.12109375,0.647885307878989
20,675,38.43795776367199,0.6708689207185925
21,708,39.15751647949199,0.6834275894710737
22,742,39.27893066406301,0.6855466667504624
23,775,38.80400085449199,0.6772575778575782
24,808,37.73429107666,0.6585876201936331
25,842,36.71426391602,0.6407847877806958
26,875,33.818748474120994,0.5902485097772199
27,908,30.983238220215,0.5407595198724997
28,941,27.581489562987997,0.4813878054785925
29,975,23.647155761719006,0.41272072677394434
30,1008,19.237167358397997,0.3357519091612251
31,1041,14.43822479248,0.251994560771851
32,1075,9.369636535644503,0.16353100726215164
33,1108,4.173614501953097,0.07284331476806494
34,1141,-1.0024566650391051,-0.0174961694134943
35,1175,-6.0177688598632955,-0.1050298802285996
36,1208,-10.745338439941406,-0.18754153501808846
37,1241,-15.081008911132798,-0.2632132600218722
38,1275,-18.482879638672003,-0.32258710494464626
39,1308,-22.296600341796903,-0.38914908796564895
40,1341,-25.09814453125,-0.43804525821172136
41,1375,-27.3412666320801,-0.47719512439545886
42,1408,-29.020980834960902,-0.5065116677282409
43,1441,-30.134860992431598,-0.5259525439487374
44,1475,-30.682216644287102,-0.5355057022530156
45,1508,-30.662990570068402,-0.5351701439556666
46,1541,-30.076774597167997,-0.5249387451007728
47,1575,-28.207878112792997,-0.4923203480694822
48,1608,-27.189117431640597,-0.47453961989351257
49,1641,-24.8751983642578,-0.43415411354300626
50,1675,-21.758605957030994,-0.3797593145942426
51,1708,-18.4992218017578,-0.3228723294973912
52,1741,-14.475357055664105,-0.2526426410231306
53,1775,-9.633407592772997,-0.16813468068050996
54,1808,-5.058113098144503,-0.08828072750087257
55,1841,0.10679626464839487,0.0018639464469456524
56,1874,5.373153686523395,0.09377922304550457
57,1908,10.580253601074006,0.1846602610347281
58,1941,15.577743530272997,0.27188291463450875
59,1974,20.232803344727003,0.3531290352740075
60,2008,24.441352844237997,0.4265820807736338
61,2041,28.134101867675994,0.49103270968243207
62,2074,31.271308898925994,0.5457873016944612
63,2108,33.834907531738,0.5905305385366559
64,2141,35.821128845215,0.6251966401301159
65,2174,37.231384277344006,0.6498102407149027
66,2208,38.65078735352,0.6745834978071095
67,2241,38.31823730468801,0.6687794045273234
68,2274,37.987060546875,0.6629992796974067
69,2308,37.71556091309,0.6582607171698993
70,2341,35.575210571289006,0.6209045565592861
71,2374,33.502922058105,0.5847362989529672
72,2408,30.862533569335994,0.538652826292191
73,2441,27.670310974120994,0.48293803154913073
74,2474,23.955169677734006,0.4180965837503674
75,2508,19.762901306152003,0.3449276975390403
76,2541,15.165771484375,0.2646926460074115
77,2574,10.269340515137003,0.17923380399759137
78,2608,5.205993652343807,0.09086173007132436
79,2641,0.12190246582029829,0.002127599394864177
80,2674,-4.836631774902301,-0.08441514917862247
81,2708,-9.536346435546903,-0.16644064391111857
82,2741,-13.867408752441406,-0.24203194144998186
83,2774,-17.750221252441406,-0.309799803812574
84,2807,-21.134819030761705,-0.3688721788999485
85,2841,-23.36676025391,-0.4078269019548757
86,2874,-26.313991546630902,-0.4592657918306642
87,2907,-28.088878631591797,-0.4902434153143562
88,2941,-29.3114395141602,-0.5115811280212625
89,2974,-29.76318359375,-0.5194655495864959
90,3008,-30.080410003662102,-0.5250021949137431
91,3041,-29.6208267211914,-0.5169809534475063
92,3074,-28.5949668884277,-0.49907632170182126
93,3107,-26.290466308600003,-0.4588551989697096
94,3141,-24.826843261718693,-0.4333101577935594
95,3174,-22.071884155273395,-0.385227050628288
96,3207,-18.743865966796903,-0.3271421756731161
97,3241,-14.878959655761705,-0.2596868352644437
98,3274,-10.541664123535199,-0.1839867475950514
99,3307,-5.820930480957003,-0.1015944024223967
100,3341,-0.82958984375,-0.014479074214542864
101,3374,4.292449951171903,0.07491738462501951
102,3407,9.386482238769503,0.16382502024649637
103,3441,14.299423217772997,0.2495720162862609
104,3474,18.904357910155994,0.32994328850765653
105,3507,23.104179382324006,0.4032440011929437
106,3541,26.82592010498,0.46820063070884377
107,3574,30.173110961909998,0.5266201318549228
108,3607,32.647468566895,0.5698058189336725
109,3641,34.70475769043,0.6057122878048267
110,3674,36.188697814940994,0.6316119288799982
111,3707,37.103057861328,0.6475705222381394
112,3741,37.452941894530994,0.6536771506176886
113,3774,37.24104309082,0.6499788188118947
114,3807,36.465873718262,0.636449561000139
115,3840,35.125663757324006,0.6130584845137466
116,3874,33.222442626953,0.5798410093952442
117,3907,30.764366149902003,0.5369394816048816
118,3940,27.766654968262003,0.4846195514614138
119,3974,24.252243041992003,0.4232814920766459
120,4007,20.25927734375,0.3535910937231286
121,4040,15.85375213623,0.27670017357229804
122,4074,11.133087158202997,0.19430902682214124
123,4107,6.219352722167997,0.10854818234470365
124,4140,1.2497940063476989,0.021813020382458248
125,4174,-3.634239196777301,-0.063429439788798
126,4207,-8.300132751464801,-0.14486464486567696
127,4240,-12.636001586914105,-0.2205398319788796
128,4274,-16.557273864746094,-0.28897894409422564
129,4307,-20.006500244140597,-0.3491793010613027
130,4340,-22.477691650390994,-0.39230972754736104
131,4374,-25.3583984375,-0.4425875457669606
132,4407,-27.2247276306152,-0.4751611351129097
133,4440,-28.540298461914098,-0.4981221776622744
134,4473,-29.302139282226598,-0.5114188083528222
135,4507,-29.5086669921875,-0.5150233968882436
136,4540,-29.157726287841797,-0.5088983261181432
137,4574,-28.245048522949197,-0.4929690941110245
138,4607,-26.766738891601598,-0.46716772368006554
139,4640,-24.721221923828097,-0.43146671768700706
140,4674,-22.109642028808594,-0.38588604984002894
141,4707,-18.412078857422003,-0.3213513981988496
142,4740,-15.242668151855497,-0.2660347460387573
143,4774,-11.067573547363295,-0.193165598608118
144,4807,-6.499954223632798,-0.1134456024313042
145,4840,-1.6503219604492045,-0.02880355192780626
146,4874,3.3504943847655966,0.05847715858374136
147,4907,8.356529235839801,0.14584894920457026
148,4940,13.216247558594006,0.2306670346561277
149,4973,17.789909362792997,0.31049249201210416
150,5007,21.967132568359006,0.38339879053994297
151,5040,25.673240661620994,0.44808257920217365
152,5073,28.86450958252,0.5037807291884278
153,5107,31.519157409667997,0.550113074253074
154,5140,33.627883911133,0.5869172947276993
155,5173,35.186958312988,0.6141282763236302
156,5207,36.194549560547,0.6317140611078118
157,5240,36.64924621582,0.6396500148401314
158,5273,36.549728393555,0.6379131011771926
159,5307,35.894500732422,0.6264772211402803
160,5340,34.683639526367,0.6053437063099509
161,5373,32.921318054199006,0.5745853941420256
162,5407,30.614791870117003,0.534328917946334
163,5440,27.775382995605,0.4847718842757529
164,5473,24.424179077147997,0.4262823419929427
165,5507,20.599006652832003,0.35952048873213505
166,5540,16.362640380859006,0.2855819489657687
167,5573,11.806587219237997,0.2060638203995846
168,5606,7.43701171875,0.12980034100159
169,5640,2.1988830566405966,0.0383777492046955
170,5673,-2.5948791503905966,-0.04528918486566891
171,5707,-7.204574584960895,-0.1257435477130715
172,5740,-11.514793395996094,-0.20097105744703114
173,5773,-15.440376281738295,-0.2694854038631729
174,5806,-18.234619140625,-0.31825414185108514
175,5840,-21.235153198242003,-0.370623340474727
176,5873,-24.411491394042997,-0.42606090014831066
177,5906,-26.367095947265597,-0.4601926384690378
178,5940,-27.777400970459,-0.4848071045811777
179,5973,-28.635799407959,-0.4997889836095275
180,6006,-28.394950866699,-0.49558538356591497
181,6040,-28.687255859375,-0.500687068108129
182,6073,-27.878875732421903,-0.4865781732851078
183,6106,-26.514579772949197,-0.46276671682065396
184,6140,-24.5948104858398,-0.4292604218819307
185,6173,-22.121772766113295,-0.3860977711466904
186,6206,-19.102180480957003,-0.3333959437028937
187,6240,-15.555870056152301,-0.2715011504922529
188,6273,-11.529792785644503,-0.2012328461821853
189,6306,-7.1038284301757955,-0.12398519560334775
190,6340,-2.387565612792997,-0.04167088105063388
191,6373,2.4844284057617045,0.04336145571061545
192,6406,7.363937377929702,0.12852495315555124
193,6440,12.109176635742003,0.21134500199926798
194,6473,16.599311828612997,0.2897126449745375
195,6506,20.735702514647997,0.3619062815946752
196,6540,24.440414428710994,0.4265657023329359
197,6573,27.65828704834,0.4827281744552372
198,6606,30.356498718262003,0.5298208520111105
199,6639,32.519424438477,0.5675710273049317
200,6673,34.141296386719006,0.59587803284749
201,6706,35.221481323242,0.6147308165202623
202,6739,35.762168884277,0.6241675946849008
203,6773,35.764625549315994,0.6242104715784498
204,6806,35.22590637207,0.6148080481918723
205,6839,34.141418457030994,0.5958801633763531
206,6873,32.510711669922,0.5674189608066831
207,6906,30.342781066895,0.5295814338291156
208,6939,27.657112121582003,0.48270766811484034
209,6973,24.479606628417997,0.4272497352589222
210,7006,20.843055725097997,0.36377994857961427
211,7039,16.796058654785,0.2931465248840879
212,7073,12.410636901855,0.21660647620687823
213,7106,7.7855758666992045,0.1358839330377124
214,7139,3.4436492919920028,0.06010301842923216
215,7173,-1.6768417358398011,-0.029266409325261478
216,7206,-6.245147705078097,-0.10899838972698062
217,7239,-10.544395446777301,-0.18403441817856248
218,7272,-14.482032775878906,-0.25275915432082097
219,7306,-17.880981445312003,-0.31208199970870876
220,7339,-21.014373779296903,-0.3667700126934952
221,7373,-23.5347061157227,-0.41075811020860664
222,7406,-25.538757324218693,-0.44573540217543317
223,7439,-27.020275115966797,-0.4715927655683132
224,7472,-27.691848754882997,-0.4833139367370005
225,7506,-28.373401641845703,-0.4952092786409723
226,7539,-28.2244911193848,-0.4926102997331647
227,7572,-27.518295288085902,-0.4802848573131404
228,7606,-26.252548217773402,-0.4581934034387152
229,7639,-24.428695678710895,-0.4263611715612159
230,7672,-22.055961608886705,-0.38494914976853867
231,7706,-19.1502685546875,-0.3342352389204326
232,7739,-15.734893798828097,-0.2746257042411886
233,7772,-11.850593566894503,-0.20683187605796793
234,7806,-7.566345214843693,-0.13205763634154022
235,7839,-2.8114013671870026,-0.04906821045248333
236,7872,1.7804565429688068,0.031074828863481674
237,7906,6.577369689941406,0.11479675721035609
238,7939,11.265747070312997,0.19662437907386687
239,7972,15.713485717772997,0.2742520627402434
240,8006,19.812950134277003,0.3458012143765863
241,8039,23.487945556640994,0.4099419844925576
242,8072,26.690574645995994,0.4658384068219501
243,8106,29.392181396484006,0.5129903397120708
244,8139,31.576332092285,0.5511109607135234
245,8172,33.234657287598,0.5800541954405132
246,8205,34.363349914550994,0.5997535980238271
247,8239,34.961647033690994,0.6101958526580167
248,8272,35.31478881836,0.6163593395268596
249,8306,34.574249267578,0.603434486124474
250,8339,33.589469909668,0.5862468439232691
251,8372,32.77857971191,0.5720941401002437
252,8406,30.43785095215,0.5312407163463084
253,8439,27.496284484862997,0.4799006963258923
254,8472,24.453430175780994,0.4267928699739141
255,8505,20.948104858397997,0.3656134018320656
256,8539,17.31448364258,0.3021947478457221
257,8572,12.775245666504006,0.2229700996316324
258,8605,8.2757568359375,0.1444392048815375
259,8639,3.650985717773395,0.06372172171843427
260,8672,-0.7099304199220029,-0.012390623287704905
261,8706,-5.463951110839801,-0.09536393705215618
262,8739,-9.713790893554702,-0.16953763394277144
263,8772,-13.626960754394503,-0.23783533220423436
264,8805,-17.133522033691406,-0.29903637195090993
265,8839,-20.185798645019503,-0.35230864850020027
266,8872,-22.754615783691406,-0.3971429654516849
267,8905,-24.821304321289105,-0.4332134850459912
268,8939,-26.369819641113303,-0.4602401758944965
269,8972,-27.386058807372997,-0.4779768953334502
270,9005,-27.861423492431598,-0.4862735742354287
271,9039,-27.791477203369098,-0.48505278119173645
272,9072,-27.1719779968262,-0.4742404803240705
273,9105,-25.206542968700006,-0.439937167849241
274,9139,-24.274024963378906,-0.4236616583222579
275,9172,-22.0046844482422,-0.3840541944842182
276,9205,-19.206367492675795,-0.3352143500952005
277,9239,-15.044723510742003,-0.26257996031464836
278,9272,-12.142738342285199,-0.21193076428103486
279,9305,-7.873275756835994,-0.13741458487423652
280,9339,-3.5300979614257955,-0.06161183234481982
281,9372,1.1092147827148011,0.019359450070166817
282,9405,5.7920455932617045,0.10109026602804505
283,9438,10.37939453125,0.18115460893380608
284,9472,14.747657775879006,0.25739518514643267
285,9505,18.796318054199006,0.32805763729782655
286,9538,22.450157165527003,0.3918291601286439
287,9572,25.659240722655994,0.4478382341721563
288,9605,28.392356872559006,0.4955401098273948
289,9638,30.625747680664006,0.5345201329126037
290,9672,32.341293334960994,0.5644620530483668
291,9705,33.531593322754006,0.585236706921803
292,9738,34.198318481445,0.5968732561468424
293,9772,34.345558166504006,0.5994430734407219
294,9805,33.974792480469006,0.5929719914659954
295,9838,33.83877563477,0.5905980496703709
296,9872,31.672538757324006,0.5527900837808173
297,9905,29.747871398925994,0.5191983013711101
298,9938,27.32307434082,0.47687760901448817
299,9972,24.416709899902003,0.42615198025758505
300,10005,21.5818939209,0.37667510773585366
301,10038,17.292610168457003,0.301812983703426
302,10072,13.185218811035,0.23012548084845275
303,10105,8.826934814453097,0.1540590753711213
304,10138,4.330482482910199,0.07558117752672211
305,10172,-0.18479156494140625,-0.0032252212381405077
306,10205,-4.603515625,-0.08034650482325456
307,10238,-8.816574096679702,-0.15387824673310568
308,10272,-12.725143432617202,-0.22209565068770343
309,10305,-16.248840332031193,-0.283595763424793
310,10338,-19.3312530517578,-0.33739401428937543
311,10372,-21.36393737793,-0.3728710484347626
312,10405,-24.040679931640597,-0.4195890192252536
313,10438,-25.628768920898395,-0.4473064009024712
314,10471,-26.6919593811035,-0.46586257500884387
315,10505,-27.225269317627003,-0.47517058933478107
316,10538,-27.225090026855497,-0.4751674601204998
317,10572,-26.6885795593262,-0.4658035859906995
318,10605,-25.612495422363295,-0.44702237477221507
319,10638,-23.36065673828,-0.4077203755111851
320,10671,-21.834442138671903,-0.381082905656017
321,10705,-19.150009155273395,-0.3342307115465788
322,10738,-15.680404663085994,-0.27367468941592277
323,10771,-12.328437805175795,-0.2151718313276607
324,10805,-8.291114807128906,-0.14470725204525392
325,10838,-3.4635772705079972,-0.06045082726760276
326,10871,0.5859680175780966,0.01022707121812183
327,10905,5.170852661132798,0.09024840407227797
328,10938,9.676330566406307,0.16888382789515788
329,10971,13.984390258789006,0.24407365389969016
330,11005,17.993476867675994,0.31404541522238216
331,11038,21.62117767334,0.3773607385584701
332,11071,24.81063079834,0.43302719692774216
333,11105,27.53018951416,0.48049245072011004
334,11138,29.762138366699006,0.5194473069330252
335,11171,31.492874145507997,0.5496543447553104
336,11205,32.713722229004006,0.5709621634789785
337,11238,33.424644470215,0.5833700973137677
338,11271,33.630615234375,0.5869649653112083
339,11305,33.333366394043,0.58177699434968
340,11338,32.529808044434006,0.5677522554171115
341,11371,31.217651367187997,0.54485080109714
342,11405,29.400779724120994,0.5131404088395013
343,11438,27.90400695801,0.48701679591668157
344,11471,24.304496765137003,0.42419349159195163
345,11504,21.71479797363,0.37899472104523624
346,11538,17.435897827147997,0.30431382512505767
347,11571,13.461120605469006,0.23494087557348675
348,11604,9.229698181152301,0.16108862222643983
349,11638,4.841667175292997,0.0845030334945962
350,11671,0.41016387939450283,0.0071587101681871435
351,11704,-3.4326019287109943,-0.059910205566314545
352,11738,-8.100311279296903,-0.14137710226016487
353,11771,-11.636459350585994,-0.2030945289422068
354,11804,-15.462615966796903,-0.26987355959205206
355,11838,-18.545585632324205,-0.32368153099461194
356,11871,-21.1721572875977,-0.36952385441869184
357,11904,-23.311180114746094,-0.4068568455277488
358,11938,-24.424057006835994,-0.42628021146407935
359,11971,-26.0546836853027,-0.4547400158741821
360,12004,-26.6396903991699,-0.4649503091774372
361,12038,-26.691593170166,-0.4658561834222279
362,12071,-26.2102279663086,-0.4574547757103824
363,12104,-25.1971817016602,-0.4397737829172379
364,12138,-23.652198791503906,-0.4128087442479669
365,12171,-21.577583312988295,-0.37659987343503176
366,12204,-18.845428466797003,-0.32891477569467464
367,12238,-15.897506713867202,-0.2774638350148868
368,12271,-12.357521057128906,-0.21567942983142974
369,12304,-8.427009582519503,-0.14707906331207798
370,12338,-4.195632934570298,-0.07322760891336344
371,12371,0.22199249267579546,0.0038744999119020296
372,12404,4.699661254882798,0.08202456262611335
373,12438,9.113250732421903,0.15905623084054699
374,12471,13.345626831055,0.23292512894440676
375,12504,17.291961669922003,0.3018016652687958
376,12537,20.871406555175994,0.3642747639101487
377,12571,24.31478881836,0.42437312180748354
378,12604,26.739624023437997,0.4666944799543664
379,12638,28.973167419434006,0.5056771662006723
380,12671,30.716613769530994,0.5361060453417426
381,12704,31.963096618652003,0.5578612751285439
382,12737,32.712501525879006,0.5709408581902577
383,12771,32.966316223145,0.5753707603475018
384,12804,32.723648071289006,0.5711354021078852
385,12837,31.981399536132997,0.5581807213013081
386,12871,30.739631652832003,0.5365077831921852
387,12904,29.627899169900004,0.5171043909636501
388,12937,26.794799804687997,0.46765747900453913
389,12971,24.12068939209,0.4209854477428401
390,13004,21.588989257799994,0.37679894472629694
391,13037,17.489227294922003,0.30524459992605024
392,13071,13.633033752440994,0.2379413260156129
393,13104,9.519477844238295,0.1661462314526101
394,13137,5.244400024414105,0.09153204771769707
395,13171,0.9156341552733949,0.015980830753237862
396,13204,-3.3513870239257955,-0.0584927380761191
397,13237,-7.446365356445298,-0.12996359277641156
398,13271,-11.275611877441406,-0.19679655243833194
399,13304,-14.763168334960895,-0.25766589547123675
400,13337,-17.847427368164105,-0.3114963705850098
401,13371,-20.481719970703097,-0.35747344996024544
402,13404,-22.6360321044922,-0.39507328981053
403,13437,-24.2924346923828,-0.42398296870777563
404,13470,-25.438652038574205,-0.4439882353422875
405,13504,-26.066219329834,-0.454941350852593
406,13537,-26.170379638671903,-0.45675929119170866
407,13571,-25.748390197753906,-0.4493941860390396
408,13604,-24.798812866210895,-0.43282093510131214
409,13637,-23.322196960449205,-0.4070491257584523
410,13670,-21.323066711425795,-0.37215772073677966
411,13704,-18.813629150390597,-0.32835977292349927
412,13737,-15.8177490234375,-0.276071800713102
413,13770,-12.376113891601605,-0.21600393601025658
414,13804,-8.551963806152301,-0.1492599259287437
415,13837,-4.430534362792997,-0.07732741225348683
416,13870,-0.11565399169920454,-0.0020185429482253436
417,13904,4.272789001464801,0.07457423631856153
418,13937,8.607086181640597,0.15022199287253524
419,13970,12.767601013184006,0.2228366752610249
420,14004,16.655784606934006,0.29069828089398797
421,14037,20.195472717285,0.3524774929133092
